Tiempo [s],h1_Real [cm],h2_Real [cm],h3_Real [cm],h4_Real [cm],h1_Ref [cm],h2_Ref [cm],v1_Bomba [V],v2_Bomba [V]
0.0,12.3919764076141,12.691803334237504,1.7922708288704376,1.3967001748232524,12.0,12.0,2.5000848259318103,2.4997494835159353
0.20002667022269635,12.377163430748265,12.678214987344225,1.7805202527860773,1.3909017210370112,12.009426019256072,12.009426019256072,2.000084723714723,1.9997447059182192
0.4000533404453927,12.355097082583121,12.660646972605525,1.7658587920738908,1.3824505682266595,12.018851945456325,12.018851945456325,1.6317503476063684,1.499743541784615
0.600080010668089,12.326975881927233,12.635607672990162,1.745665145958161,1.37181811185285,12.028277685545861,12.028277685545861,1.131614331513063,0.9992749821420285
0.8001066808907854,12.30248636986149,12.606147452519565,1.7222931397877734,1.3626521254140918,12.037703146471618,12.037703146471618,1.5853149004519322,0.49927172611953685
1.0001333511134818,12.270195205886349,12.568542240635786,1.6929388948414634,1.350682565179552,12.04712823518329,12.04712823518329,1.0853568011841113,-0.0003588408907085453
1.200160021336178,12.241319756078257,12.532311072331638,1.664874978412591,1.3401264925968475,12.056552858634248,12.056552858634248,1.213514720451576,-0.0004581049595070378
1.4001866915588745,12.22119976896584,12.494733538324448,1.6360163106728296,1.332977449714689,12.06597692378245,12.06597692378245,1.7135271216833685,-3.773470887588302e-05
1.6002133617815708,12.208227461851996,12.460888060761341,1.6102102504908198,1.32861812385853,12.075400337591374,12.075400337591374,2.213310780391169,-0.0005388405948596953
1.800240032004267,12.194090378037224,12.423399682882522,1.5818313999707903,1.3239266076901326,12.084823007030918,12.084823007030918,2.1088507989624024,-0.00010749496174812158
2.0002667022269636,12.188914145956158,12.388873983146398,1.5559062792749738,1.3226949536229313,12.094244839078339,12.094244839078339,2.608785919183778,-4.805934192940088e-05
2.20029337244966,12.188383575729809,12.357111010187573,1.5322542954527425,1.3232878427060788,12.103665740719155,12.103665740719155,3.1082732303935527,0.49997862159294815
2.400320042672356,12.192693512057122,12.335396972211615,1.5163840319579156,1.325754861949528,12.11308561894807,12.11308561894807,3.5839908619378718,0.9999784777362442
2.6003467128950524,12.203502553297058,12.312318769968877,1.4995658230129576,1.3306986864104504,12.122504380769893,12.122504380769893,3.6544413679902092,1.4984029808804278
2.800373383117749,12.222382639548256,12.288524048521635,1.4822842072805829,1.3387014307892493,12.13192193320045,12.13192193320045,4.154105874356851,0.9984497549568474
3.0004000533404453,12.245517728091022,12.261457549289211,1.4625910189957478,1.348328988741743,12.141338183267514,12.141338183267514,4.504429832633109,0.8268180317248274
3.2004267235631416,12.267010726787678,12.240874523645827,1.4479079225581692,1.357364024790991,12.150753038011707,12.150753038011707,4.452292168482375,1.2242039932647062
3.400453393785838,12.277885662081413,12.229647463987835,1.4403929494293892,1.362427793875035,12.160166404487434,12.160166404487434,3.952354774865499,1.7240753283861816
3.600480064008534,12.279581466847734,12.222847888451845,1.4362729806360377,1.3640547286212303,12.169578189763783,12.169578189763783,3.4523824484167536,2.2241039250850503
3.800506734231231,12.28560603676308,12.222296837630394,1.4369112067065852,1.3672992311747691,12.178988300925461,12.178988300925461,3.5160064517536553,2.723723737669333
4.000533404453927,12.286737461094551,12.221907735701423,1.437653621951377,1.3686950247671064,12.188396645073698,12.188396645073698,3.315696859935167,2.7778488897117537
4.200560074676623,12.298056132665646,12.224416052848012,1.440571323688409,1.3738898555058934,12.197803129327168,12.197803129327168,3.8159952511132507,3.2772769061453024
4.40058674489932,12.317556086155207,12.237377297751559,1.4513679146402196,1.3821019867116364,12.207207660822908,12.207207660822908,4.31599263519917,3.699531699171406
4.600613415122016,12.327020904296436,12.252454533355962,1.4636609506651443,1.3864856885980141,12.216610146717231,12.216610146717231,3.816105386699806,4.199363726088885
4.800640085344712,12.334588604180292,12.275592057930458,1.4819656094378122,1.3900881839171533,12.22601049418665,12.22601049418665,3.417034245161298,4.6993635946355585
5.0006667555674085,12.345638614254154,12.297037166108991,1.4988352734288852,1.3949186389825112,12.235408610428777,12.235408610428777,3.9171699156674697,4.600382942743064
5.200693425790105,12.361468039421851,12.311563609533655,1.5103053998714633,1.401470708116931,12.244804402663267,12.244804402663267,3.755686869580574,4.100790777523613
5.400720096012802,12.364278085402747,12.334551143796425,1.5280998248862148,1.4030743611914,12.254197778132706,12.254197778132706,3.538895285591165,4.600581131125817
5.600746766235498,12.363843236362891,12.35629297243812,1.5448217176811423,1.403397381219399,12.263588644103544,12.263588644103544,3.039010134628509,4.495094106161191
5.800773436458194,12.354205262989566,12.373856902427656,1.558264990769418,1.4002215918730672,12.272976907867006,12.272976907867006,2.5980480436867244,3.9953067526090282
6.000800106680891,12.352797341172623,12.394356028543447,1.573854920061654,1.4000874996228232,12.282362476740003,12.282362476740003,3.097473490499149,4.495870544595143
6.200826776903587,12.358296630942194,12.405717439467155,1.5823961357233576,1.402497953970289,12.291745258066053,12.291745258066053,3.5972773408846526,3.996651984641838
6.400853447126283,12.376221199872761,12.413303153851052,1.5879897340779523,1.4095268173889088,12.301125159216193,12.301125159216193,4.097279061675584,3.5036405843845957
6.6008801173489795,12.398941665995066,12.41357983265343,1.5879564461992666,1.4183166363840072,12.310502087589892,12.310502087589892,4.377385987377537,3.0036400134112475
6.800906787571676,12.428421464781868,12.41018399549188,1.5850846752946706,1.4296107723976774,12.319875950615973,12.319875950615973,4.756515348144756,2.705479127190282
7.000933457794372,12.458431992119532,12.413849015577371,1.5875374842852605,1.4410650961879994,12.329246655753513,12.329246655753513,4.844201421911244,3.2063322093162663
7.200960128017068,12.477324864242421,12.420797246616436,1.592421317561316,1.448305759127373,12.338614110492768,12.338614110492768,4.34444781567471,3.7058300684077454
7.400986798239765,12.489800761321002,12.438316577939297,1.6052712507758908,1.453089741091098,12.347978222356083,12.347978222356083,3.8447021482379053,4.2055493200401335
7.601013468462462,12.496845709524402,12.459856760869155,1.621072377492373,1.4557766826053358,12.357338898898806,12.357338898898806,3.3445887378073933,4.705103661641296
7.801040138685158,12.505730606881082,12.472587903555942,1.630066657699715,1.459102416308441,12.366696047710194,12.366696047710194,3.844059360529573,4.204734066686409
8.001066808907854,12.510187481822193,12.482053682861572,1.6365116887636952,1.460733933950648,12.376049576414337,12.376049576414337,3.343927130118246,4.009914254033983
8.20109347913055,12.507377450347901,12.488794330253729,1.6408456180271367,1.459621912054115,12.385399392671056,12.385399392671056,2.8439643861246466,3.5100447976926072
8.401120149353247,12.515071954295431,12.492977703744138,1.6432068474794295,1.4624354321231094,12.394745404176833,12.394745404176833,3.343643036410253,3.0104307206256027
8.601146819575943,12.525859822895569,12.50110815916712,1.6485353400944927,1.466385263511139,12.4040875186657,12.4040875186657,3.8434529471036996,3.5102215536203376
8.80117348979864,12.548224538747325,12.519439023615526,1.6615476004872298,1.4746263449880506,12.413425643910166,12.413425643910166,4.343284958461642,4.01048269592206
9.001200160021336,12.56088581933226,12.540085970818172,1.6762054374557256,1.4791627426104894,12.422759687722127,12.422759687722127,3.8434820627757786,4.510007992187772
9.201226830244032,12.579052787497368,12.561174902775761,1.6910799857056118,1.4856981421977467,12.432089557953766,12.432089557953766,4.011015419994609,4.56999348611782
9.401253500466728,12.58809958244431,12.576023033758151,1.7010989321378491,1.488758261267686,12.441415162498469,12.441415162498469,3.511036043768434,4.069982649698184
9.601280170689424,12.59728345417087,12.581656608433281,1.7040436795890095,1.4918398237802621,12.450736409291736,12.450736409291736,3.5524435231201523,3.5701583312718843
9.80130684091212,12.616732163614687,12.584821094871137,1.705072994776769,1.4987490159385317,12.460053206312086,12.460053206312086,4.0525901918003155,3.07059223499991
10.001333511134817,12.626128434504844,12.594394022537598,1.7109414398843685,1.5018622134589943,12.469365461581969,12.469365461581969,3.5529492569246433,3.5700335501581564
10.201360181357513,12.627281016857559,12.61236320318915,1.7231451746801012,1.5018512004710407,12.478673083168673,12.478673083168673,3.053125763760306,4.069830673397871
10.40138685158021,12.639737793149228,12.622037781907835,1.7289652226146834,1.5060449417076298,12.487975979185226,12.487975979185226,3.553126126670275,3.5698286726201665
10.601413521802906,12.639609592759196,12.630562915560345,1.7338701764326028,1.5054977290337157,12.497274057791312,12.497274057791312,3.1534335252195684,3.5448967565165748
10.801440192025604,12.63265404607985,12.643576815266158,1.7421660538759896,1.5023767526340268,12.506567227194173,12.506567227194173,2.6533681635403608,4.04505823251852
11.0014668622483,12.623737933459894,12.651017594359223,1.7461977173330399,1.4985139768156714,12.515855395649517,12.515855395649517,2.2725505928968204,3.6814009181385066
11.201493532470996,12.623062740401744,12.657552439789024,1.7495310300802889,1.4977390577580008,12.525138471462416,12.525138471462416,2.7725509811152413,3.3955564522260917
11.401520202693693,12.62208415763829,12.6547256539169,1.745740859082761,1.496855483709868,12.534416362988226,12.534416362988226,3.0416621351822424,2.895712736950205
11.601546872916389,12.61366485381754,12.654270312359845,1.7437902804604857,1.4931998590341429,12.543688978633481,12.543688978633481,2.5416969049322002,2.802921797040566
11.801573543139085,12.614892898208907,12.658263018906707,1.7452428255358543,1.4931703922724437,12.552956226856796,12.552956226856796,3.0412011631303684,3.3023594431549332
12.001600213361781,12.620171003717077,12.664912736963167,1.7487042798521912,1.4946510295366773,12.562218016169778,12.562218016169778,3.487305283287196,3.8023592471153176
12.201626883584478,12.63538010383527,12.682969711363146,1.7607954394228427,1.4998216953239965,12.571474255137925,12.571474255137925,3.986890416170314,4.301851038822057
12.401653553807174,12.641352809231718,12.69649393623909,1.769355551430346,1.5014864708841131,12.580724852381529,12.580724852381529,3.486864494994922,4.047799377486049
12.60168022402987,12.65835180234044,12.706735834739819,1.7753551868567001,1.5072527360306205,12.58996971657658,12.58996971657658,3.986061836603712,3.5474608885568686
12.801706894252566,12.68561910582401,12.719082616298426,1.782883022943597,1.5168251567775042,12.59920875645566,12.59920875645566,4.486438067036715,4.04734594263033
13.001733564475263,12.704836161752475,12.738342986991242,1.7955807162795547,1.5233228386689697,12.608441880808858,12.608441880808858,3.9865399276219353,4.547011820350098
13.201760234697959,12.712809005353256,12.749493032493465,1.802023226483362,1.5255620007717268,12.617668998484659,12.617668998484659,3.486663220590268,4.047416238440769
13.401786904920655,12.711554757440785,12.758656066119984,1.8069190650875062,1.5243239968831748,12.626890018390844,12.626890018390844,2.9865793366506748,3.5477416293900785
13.601813575143352,12.716475795408948,12.771966385775459,1.8149401094061826,1.5253842127534494,12.636104849495398,12.636104849495398,3.367254844539726,4.047741570699152
13.801840245366048,12.728207931933467,12.78944392591259,1.8260709443059435,1.528963663082224,12.645313400827401,12.645313400827401,3.867254389427558,4.178574002717123
14.001866915588744,12.74892353658799,12.801179459781233,1.8327519514026014,1.5358698587933353,12.654515581477927,12.654515581477927,4.367256077676986,3.803708998052388
14.20189358581144,12.784951713492523,12.819420657656254,1.8442919788544376,1.5484613424490696,12.663711300600946,12.663711300600946,4.867576265241143,4.302957027276795
14.401920256034137,12.805073426181755,12.829205090882372,1.8492975600059094,1.5550345455141759,12.672900467414212,12.672900467414212,4.36774440693528,3.8033299107302265
14.601946926256833,12.819082336290272,12.840300204780661,1.8552479449458092,1.559284326022266,12.682082991200174,12.682082991200174,3.867865703132833,3.9273689523034574
14.80197359647953,12.824134511104983,12.849123480896079,1.859430022636656,1.5601547071159108,12.691258781306853,12.691258781306853,3.3678750334658156,3.4274074832055645
15.002000266702227,12.828611450936997,12.86216499536478,1.86679314985549,1.5607923818675704,12.700427747148751,12.700427747148751,3.0065615034842414,3.9275501650168003
15.202026936924923,12.828622240476905,12.879239037388063,1.877181978859224,1.5597318653713226,12.709589798207743,12.709589798207743,3.2117721949509237,4.326894441555963
15.40205360714762,12.841080699532707,12.889997865384235,1.882711197947416,1.563314118352858,12.718744844033962,12.718744844033962,3.711993701865429,3.8274494234871246
15.602080277370316,12.840419087709678,12.894707365161118,1.8836126913887326,1.561966376602319,12.727892794246705,12.727892794246705,3.2118833662544923,3.3276016624720435
15.802106947593012,12.831691226695654,12.894200591725946,1.8805659350472816,1.5576095967277026,12.737033558535312,12.737033558535312,2.711883564212281,2.8276076685719906
16.00213361781571,12.834872795166222,12.886536423038978,1.872116358061626,1.5577465925817386,12.746167046660071,12.746167046660071,3.2113357888914154,2.327180518095607
16.202160288038403,12.844514089535307,12.88416148953554,1.8677343506339013,1.560324668056929,12.755293168453097,12.755293168453097,3.7107971486363485,2.8279218353781883
16.4021869582611,12.865449402578358,12.886531745092617,1.866966265680127,1.567134243126332,12.764411833819226,12.764411833819226,4.2107525931232495,3.328137127190922
16.602213628483796,12.872549272861464,12.894229487295524,1.8702351490516689,1.5687415997126213,12.773522952736911,12.773522952736911,3.710925283480791,3.828281114299195
16.802240298706494,12.892174525592317,12.90089518033804,1.8726872917917374,1.5750279886927914,12.782626435259104,12.782626435259104,4.210924266282928,3.3282918565518735
17.002266968929188,12.903438126074807,12.91316711206051,1.8793666814706722,1.578153230853841,12.79172219151414,12.79172219151414,3.7107837834580253,3.8286723622895797
17.202293639151886,12.910634448263735,12.916460334656788,1.8791803223491328,1.5797393125455539,12.800810131706633,12.800810131706633,3.2107616251499236,3.3289007389718748
17.402320309374584,12.919331784883612,12.925813423351677,1.883595327199191,1.5818793868482908,12.809890166118361,12.809890166118361,3.7100508573926727,3.828704682709427
17.60234697959728,12.941368701494843,12.944301510998688,1.8949071508529776,1.5889866684421399,12.818962205109147,12.818962205109147,4.210048252822421,4.224099127298278
17.802373649819977,12.956807802793502,12.961095949389607,1.9048434821172746,1.5935726049082244,12.828026159117748,12.828026159117748,3.710056006925428,4.387730993698864
18.00240032004267,12.971327788705818,12.972910736585852,1.9109235717055615,1.5977794866987283,12.837081938662735,12.837081938662735,3.852752455794779,4.067709652342043
18.20242699026537,12.995873551479624,12.981647869997206,1.9146073943832635,1.6057161103704043,12.846129454343384,12.846129454343384,4.352255125531016,3.568244807891871
18.402453660488064,13.010746009068189,12.994737965120123,1.9215538468275648,1.6099940588692572,12.855168616840547,12.855168616840547,3.8525061319629894,4.06823294831198
18.602480330710762,13.012705318177327,13.003280135824562,1.9250024003510977,1.6094121329702353,12.86419933691755,12.86419933691755,3.3525059754190165,3.568234342430896
18.802507000933456,13.023713016634378,13.02182984151982,1.9360344681646842,1.612202063793028,12.873221525421055,12.873221525421055,3.8526981060572925,4.068645405365521
19.002533671156154,13.02974556436252,13.027141589620994,1.936943423792264,1.6131067207210157,12.882235093281956,12.882235093281956,3.3527642664547144,3.5688535711515263
19.20256034137885,13.0216188392786,13.02515897783327,1.9323208344480083,1.6087169099075396,12.891239951516248,12.891239951516248,2.852781471215799,3.0688610166836465
19.402587011601547,13.028262580336378,13.026305081371465,1.9301165050606008,1.6098854922105232,12.90023601122591,12.90023601122591,3.3532980450697507,3.0688183764874633
19.60261368182424,13.020800490244158,13.025959644973504,1.9268057078030685,1.605781419097129,12.909223183599789,12.909223183599789,2.8533599939115004,3.127598003605707
19.80264035204694,13.021649186849508,13.035098701688367,1.9307380005656698,1.6048048729273012,12.918201379914457,12.918201379914457,2.899575724250613,3.6270715651609935
20.002667022269634,13.024271893306798,13.045480719819695,1.935601083599748,1.604486305624529,12.92717051153511,12.92717051153511,3.399574719966796,3.939544642109459
20.202693692492332,13.021339300310064,13.053225381280184,1.938445202734241,1.6020811471053176,12.93613048991643,12.93613048991643,2.899680297607252,3.685422090106159
20.402720362715026,13.014773061221753,13.069691990190533,1.9479197385288152,1.5983084471292366,12.945081226603458,12.945081226603458,2.765767110349993,4.184921820301659
20.602747032937724,13.020922920827108,13.080917454820057,1.9533706056032858,1.5992902165392016,12.954022633232478,12.954022633232478,3.2657678661288356,3.7689642723323673
20.80277370316042,13.037689724213097,13.086942122509258,1.9548314355870655,1.6042378072459982,12.962954621531876,12.962954621531876,3.7658248906544323,3.2695425472922808
21.002800373383117,13.061037742633948,13.097351745496645,1.95959255551379,1.6116289429954467,12.971877103323024,12.971877103323024,4.265822300020062,3.6845078621521106
21.20282704360581,13.092424777818405,13.100575754502275,1.9588321522194523,1.6220053930308953,12.98078999052114,12.98078999052114,4.7658238807442075,3.245364412796058
21.40285371382851,13.111449785735358,13.101206078315004,1.9560749318039903,1.627730838898342,12.98969319513616,12.98969319513616,4.265829773092051,2.7453906284056844
21.602880384051208,13.140376855515978,13.105361630766893,1.9559833082344742,1.6371548900072523,12.998586629273618,12.998586629273618,4.765460275323969,3.24510321773698
21.802907054273902,13.161765657022103,13.117367402063897,1.9618255420779938,1.6437233380778302,13.007470205135492,13.007470205135492,4.265443911918888,3.7449379402915564
22.0029337244966,13.171278007666231,13.133107386777851,1.9704576011065151,1.64580766577827,13.016343835021093,13.016343835021093,3.765540099723711,4.245220676077702
22.202960394719295,13.176401905048559,13.146890574555762,1.9775544736634718,1.6462235351674284,13.025207431327916,13.025207431327916,3.2657146799721244,3.74547840422722
22.402987064941993,13.178285459667986,13.148932397058406,1.975698670610257,1.6454217014081378,13.034060906552511,13.034060906552511,3.232460906331978,3.2458259281962945
22.603013735164687,13.194609687842826,13.157135068723054,1.9785324720336463,1.6500324829317599,13.042904173291348,13.042904173291348,3.7321426808563456,3.745383285160793
22.803040405387385,13.207255291380276,13.160474236916789,1.977644235736296,1.6532536202788704,13.051737144241674,13.051737144241674,3.5869750418958293,3.2448076713244243
23.00306707561008,13.214787865591685,13.157252389156115,1.9717736621878446,1.6545652995064526,13.060559732202378,13.060559732202378,3.2800246010337886,2.745234708821677
23.203093745832778,13.209641782606845,13.150927105069151,1.963591807591652,1.6511514123880284,13.069371850074857,13.069371850074857,2.7801045779859974,2.4751714171390455
23.403120416055472,13.210401121602619,13.152652173622647,1.9615912172408405,1.6499788670365032,13.078173410863865,13.078173410863865,3.279932373510142,2.9745684603318323
