Tiempo [s],h1_Real [cm],h1_Ref [cm],h2_Real [cm],h2_Ref [cm],h3_Real [cm],h3_Ref [cm],h4_Real [cm],h4_Ref [cm],u1_Bomba1 [V],u2_Bomba2 [V]
0.0,12.401307559121964,14.0,12.701564386880262,14.0,1.800811633127064,0.0,1.4004125277430546,0.0,3.5,3.5
0.05001250312578145,12.405595057355397,14.009427119229692,12.704605642941493,13.990572880770308,1.8027453662221422,0.0,1.401940674555358,0.0,4.0,4.0
0.1000250062515629,12.411898547931198,14.018854145370984,12.709914701787353,13.981145854629016,1.8064004487536296,0.0,1.4042210379510036,0.0,4.5,4.5
0.15003750937734434,12.41991537575285,14.028280985336398,12.717319815814653,13.971719014663602,1.81164261638572,0.0,1.4071382321510426,0.0,5.0,5.0
0.2000500125031258,12.429825265888612,14.03770754604029,12.72459762268727,13.96229245395971,1.8167759182623051,0.0,1.410758509293707,0.0,5.5,5.5
0.25006251562890724,12.442312477365755,14.047133734399777,12.734001776838896,13.952866265600223,1.8235152560875107,0.0,1.4153371819654457,0.0,6.0,6.0
0.30007501875468867,12.45506356844518,14.05655945733565,12.743341688313405,13.94344054266435,1.8301898070697808,0.0,1.4200056807876724,0.0,6.0,6.0
0.35008752188047015,12.466949031991794,14.065984621773302,12.752804698371518,13.934015378226698,1.8369424932251672,0.0,1.4243405674130445,0.0,6.0,6.0
0.4001000250062516,12.479703319432682,14.075409134643632,12.76174400242693,13.924590865356368,1.843280818216319,0.0,1.4289924254044077,0.0,6.0,6.0
0.450112528132033,12.49246538507685,14.08483290288398,12.770841984500672,13.91516709711602,1.8497247721117647,0.0,1.4336383752892303,0.0,6.0,6.0
0.5001250312578145,12.505230588966974,14.094255833439034,12.779927068717974,13.905744166560966,1.8561436175395598,0.0,1.4382766778076055,0.0,6.0,6.0
0.5501375343835959,12.517999173434982,14.103677833261756,12.789400245948269,13.896322166738244,1.8628427281131346,0.0,1.442907357857909,0.0,6.0,6.0
0.6001500375093773,12.528915603777904,14.1130988093143,12.798875224644464,13.8869011906857,1.8695280706241437,0.0,1.4468348146377674,0.0,6.0,6.0
0.6501625406351588,12.540633031159725,14.122518668568928,12.807863634896579,13.877481331431072,1.8758281490026678,0.0,1.4510543319072176,0.0,6.0,6.0
0.7001750437609403,12.553413845090375,14.131937318008928,12.817255929941746,13.868062681991072,1.8824210846097305,0.0,1.4556640766191313,0.0,6.0,6.0
0.7501875468867217,12.566197994196084,14.141354664629539,12.826632912141886,13.858645335370461,1.8889870899216517,0.0,1.4602662911368018,0.0,6.0,6.0
0.8002000500125032,12.578490523911801,14.150770615438857,12.83588989443641,13.849229384561143,1.895446666779945,0.0,1.4646755283133097,0.0,6.0,6.0
0.8502125531382846,12.590887881694727,14.160185077458769,12.845375261381307,13.839814922541231,1.9020653507890535,0.0,1.4691155285291546,0.0,6.0,6.0
0.900225056264066,12.603682285428977,14.169597957725859,12.854634523752319,13.830402042274141,1.908496817339962,0.0,1.4736958372685518,0.0,6.0,6.0
0.9502375593898476,12.616479391325742,14.17900916329233,12.863590507639064,13.82099083670767,1.9146825436637842,0.0,1.4782687097769105,0.0,6.0,6.0
1.000250062515629,12.628565923176524,14.188418601226925,12.873082604770751,13.811581398773075,1.9212621677580928,0.0,1.4825667525197173,0.0,6.0,6.0
1.0502625656414104,12.640798274202961,14.197826178615836,12.882576483215857,13.802173821384164,1.9278284763260083,0.0,1.486911086898739,0.0,6.0,6.0
1.1002750687671918,12.653605488030422,14.207231802563633,12.891949935044316,13.792768197436367,1.9342883276805511,0.0,1.491462568489489,0.0,6.0,6.0
1.1502875718929733,12.666414413268827,14.216635380194171,12.899753864284362,13.783364619805829,1.939538528849292,0.0,1.496006704759662,0.0,6.0,5.5
1.2003000750187547,12.678484907513813,14.226036818651515,12.909254727207951,13.773963181348485,1.9460679693196317,0.0,1.5002660581935474,0.0,6.0,6.0
1.2503125781445361,12.690955055866302,14.23543602510085,12.917839290633315,13.76456397489915,1.951885319566446,0.0,1.5046672772369882,0.0,6.0,6.0
1.3003250812703175,12.703087604098245,14.244832906729402,12.92734416792569,13.755167093270598,1.9583899512700569,0.0,1.5089339197633445,0.0,6.0,6.0
1.3503375843960992,12.7158973374559,14.254227370747353,12.936850878614674,13.745772629252647,1.9648815444668568,0.0,1.5134462533983593,0.0,6.0,6.0
1.4003500875218806,12.728207206271481,14.263619324388761,12.945855995547337,13.736380675611239,1.9709768382430435,0.0,1.517763040684689,0.0,6.0,6.0
1.450362590647662,12.74103133201088,14.273008674912472,12.954187534054824,13.726991325087528,1.976545506489428,0.0,1.5222649495199831,0.0,6.0,5.929971661879767
1.5003750937734435,12.753586269733814,14.28239532960303,12.96301308450854,13.71760467039697,1.9824772447921224,0.0,1.5266582390714867,0.0,6.0,6.0
1.550387596899225,12.766414258204378,14.291779195771607,12.97252857882321,13.708220804228393,1.9889207419899857,0.0,1.5311459486398882,0.0,6.0,6.0
1.6004001000250063,12.77886312050639,14.301160180756908,12.981955501833985,13.698839819243092,1.9952826008842424,0.0,1.5354833959575402,0.0,6.0,6.0
1.6504126031507877,12.791189090236413,14.310538191926087,12.990984517915793,13.689461808073913,2.001327582012901,0.0,1.539766921486233,0.0,6.0,5.921915363225324
1.7004251062765692,12.804024975119981,14.319913136675664,13.000505547865368,13.680086863324336,2.0077336427630903,0.0,1.5442337808260775,0.0,6.0,6.0
1.7504376094023506,12.81686346866029,14.32928492243244,13.01002845334383,13.67071507756756,2.014127021211369,0.0,1.548693555556681,0.0,6.0,6.0
1.800450112528132,12.82970452868197,14.338653456654404,13.01955321381756,13.661346543345596,2.020507762550205,0.0,1.5531462670984202,0.0,6.0,6.0
1.8504626156539135,12.8425473847414,14.34801864683166,13.028110038735036,13.65198135316834,2.0261375660334906,0.0,1.5575919367456386,0.0,6.0,5.868442146317097
1.900475118779695,12.855391609481618,14.35738040048733,13.03711865480984,13.64261959951267,2.0320984668958784,0.0,1.5620305856678416,0.0,6.0,5.721063540028417
1.9504876219054765,12.868236291210621,14.366738625178463,13.044509791082259,13.633261374821537,2.0368145657742516,0.0,1.5664622349108772,0.0,6.0,5.556318478472613
2.000500125031258,12.881081790108645,14.376093228496968,13.054043749590736,13.623906771503032,2.0431506235856762,0.0,1.5708869053981003,0.0,6.0,6.0
2.050512628157039,12.893515607902959,14.385444118070504,13.062462462060312,13.614555881929496,2.0486238954754867,0.0,1.5751497177552667,0.0,6.0,5.6877245931716995
2.100525131282821,12.90636283347847,14.394791201563404,13.069776416910907,13.605208798436596,2.0532436243779615,0.0,1.5795607360970818,0.0,6.0,5.2546955593523546
2.1505376344086025,12.918944585652662,14.404134386677583,13.077886811286021,13.595865613322417,2.0584585234981567,0.0,1.5838654756266042,0.0,6.0,5.480521939239926
2.2005501375343837,12.931555528142757,14.413473581153454,13.084029521724261,13.586526418846546,2.0621633241945365,0.0,1.5881748279337844,0.0,6.0,5.131225553433179
2.2505626406601653,12.943538375681989,14.422808692770833,13.089421287055803,13.577191307229167,2.0652867010901943,0.0,1.592243185499474,0.0,6.0,4.741307688497911
2.3005751437859465,12.955882008666785,14.43213962934985,13.097332002269463,13.56786037065015,2.0703191511208434,0.0,1.5964409491022575,0.0,6.0,5.241307688497911
2.350587646911728,12.968722834037953,14.44146629875187,13.104541338474764,13.55853370124813,2.0748059679403625,0.0,1.6008186667297302,0.0,6.0,5.047231141179359
2.4006001500375094,12.981563103309377,14.450788608880384,13.112721262550524,13.549211391119616,2.0800208229653725,0.0,1.6051895648509333,0.0,6.0,5.547231141179359
2.450612653163291,12.993344314423094,14.460106467681937,13.118804470784832,13.539893532318063,2.0836276060796233,0.0,1.6091572023260206,0.0,6.0,5.110535308983733
2.5006251562890722,13.005561933677308,14.469419783147023,13.12726724138503,13.530580216852977,2.0890368443413125,0.0,1.613282417894482,0.0,6.0,5.610535308983733
2.550637659414854,13.018400736640006,14.478728463311004,13.134885962393277,13.521271536688996,2.0937914444387853,0.0,1.6176339510301418,0.0,6.0,5.1228230708849845
2.600650162540635,13.031238020097785,14.48803241625501,13.141497146033608,13.51196758374499,2.097767737932148,0.0,1.621978740746266,0.0,6.0,5.145690116269056
2.6506626656664167,13.043887789991544,14.49733155010685,13.148434161927304,13.50266844989315,2.1019820713401733,0.0,1.626247282620632,0.0,6.0,5.201170492379735
2.7006751687921984,13.056720788005206,14.506625773041922,13.154613644653264,13.493374226958078,2.1056092935237163,0.0,1.6305787511711116,0.0,6.0,4.701170492379735
2.7506876719179796,13.069177693470209,14.515914993284117,13.159481741113423,13.484085006715883,2.1082285973734463,0.0,1.634764025484931,0.0,6.0,4.59387246585012
2.8007001750437612,13.082002577254688,14.525199119106722,13.164932603896176,13.474800880893278,2.111283566935827,0.0,1.6390823567937367,0.0,6.0,4.627781993166802
2.8507126781695424,13.094823424426483,14.53447805883333,13.170414771551625,13.46552194116667,2.114353668532929,0.0,1.643394040029525,0.0,6.0,4.807865270328589
2.900725181295324,13.107639522228093,14.543751720838745,13.174913545431439,13.456248279161255,2.11666633621031,0.0,1.6476990941337277,0.0,6.0,4.307865270328589
2.9507376844211053,13.120273761107738,14.55302001354989,13.1803331330027,13.44697998645011,2.119672499249422,0.0,1.6519311680571533,0.0,6.0,4.438819463918604
3.000750187546887,13.13307995814411,14.5622828454467,13.184264243419571,13.4377171545533,2.121536839529943,0.0,1.6562231220215407,0.0,6.0,4.16898340490089
3.050762690672668,13.14558121314572,14.571540125063038,13.189524833240979,13.428459874936962,2.1244065129632475,0.0,1.6603962010078168,0.0,6.0,4.66898340490089
3.10077519379845,13.158377630432023,14.58079176098759,13.194426934650318,13.41920823901241,2.126994968699302,0.0,1.6646751987480626,0.0,6.0,4.16898340490089
3.150787696924231,13.171167304562395,14.590037661864773,13.196851510973838,13.409962338135227,2.1276891615741684,0.0,1.668947659765343,0.0,6.0,4.00468449131957
3.2008002000500126,13.183745209485348,14.599277736395635,13.199404419611973,13.400722263604365,2.128475813601251,0.0,1.6731373926737383,0.0,6.0,3.6548523176963994
3.2508127031757943,13.19650425445933,14.608511893338756,13.203418375432873,13.391488106661244,2.1303695180226434,0.0,1.6773913216672407,0.0,6.0,4.154852317696399
3.3008252063015755,13.209272087732758,14.617740041511148,13.207424085613388,13.382259958488852,2.1322500323866302,0.0,1.6816444064458007,0.0,6.0,4.1539147144522905
3.350837709427357,13.221757199574455,14.626962089789158,13.211210477034415,13.373037910210842,2.133956743640724,0.0,1.6857874499103196,0.0,6.0,4.268382979314542
3.4008502125531384,13.2341896943172,14.636177947109369,13.216540130565498,13.363822052890631,2.136831973017854,0.0,1.6899064426045753,0.0,6.0,4.5583130984229525
3.45086271567892,13.246940386296965,14.645387522469491,13.219936162838394,13.354612477530509,2.138226841130675,0.0,1.6941405288047295,0.0,6.0,4.0583130984229525
3.500875218804701,13.259685968464433,14.654590724929271,13.226139931033904,13.345409275070729,2.1417533104537387,0.0,1.698368203342584,0.0,6.0,4.5583130984229525
3.550887721930483,13.272426737966038,14.663787463611383,13.229956665737932,13.336212536388617,2.1434532723148423,0.0,1.7025894838943125,0.0,6.0,4.1777629991154015
3.600900225056264,13.285161253391543,14.672977647702327,13.234197017400222,13.327022352297673,2.145469232793314,0.0,1.706804388043626,0.0,6.0,3.9772107115161237
3.6509127281820457,13.297888290760556,14.68216118645333,13.236343517710093,13.31783881354667,2.145884022597173,0.0,1.71101293328255,0.0,6.0,3.4772107115161237
3.700925231307827,13.310606390924809,14.691337989181232,13.238584267342103,13.308662010818768,2.146365836578982,0.0,1.715215137012191,0.0,6.0,3.6632710021477655
3.7509377344336086,13.322339718378506,14.700507965269397,13.241190896601642,13.299492034730603,2.147121622436995,0.0,1.7190450859843325,0.0,6.0,3.8052800106004634
3.80095023755939,13.334651276306722,14.70967102416859,13.244522416127541,13.29032897583141,2.1484244469541394,0.0,1.7230886775041296,0.0,6.0,4.109728745184662
3.8509627406851714,13.347346239061729,14.718827075397888,13.247149971886033,13.281172924602112,2.1491854619356285,0.0,1.727272728343148,0.0,6.0,3.609728745184662
3.900975243810953,13.359641040343297,14.727976028545559,13.250883565881624,13.272023971454441,2.1507835298992117,0.0,1.7313033081301528,0.0,6.0,4.109728745184662
3.9509877469367343,13.372320959180549,14.737117793269965,13.253025310987317,13.262882206730035,2.1511633959243235,0.0,1.7354750465386009,0.0,6.0,3.6507320724604537
4.001000250062516,13.384992789431585,14.746252279300448,13.256431645553157,13.253747720699552,2.152501503643815,0.0,1.7396405433250461,0.0,6.0,4.150732072460453
4.051012753188298,13.397658061818744,14.755379396438228,13.260674963676939,13.244620603561772,2.15447098392368,0.0,1.7437998152883936,0.0,6.0,4.173302671051419
4.101025256314078,13.41031579093133,14.76449905455728,13.262733806424162,13.23550094544272,2.154770502372817,0.0,1.7479528791423504,0.0,6.0,3.6733026710514194
4.15103775943986,13.422429910683082,14.773611163605247,13.264166596113785,13.226388836394753,2.154589032094445,0.0,1.751899566484761,0.0,6.0,3.1733026710514194
4.201050262565642,13.43506830638229,14.782715633604305,13.265444795259004,13.217284366395695,2.1542862096855107,0.0,1.7560405618433854,0.0,6.0,3.6733026710514194
4.251062765691423,13.446846233374979,14.791812374652064,13.26644979635005,13.208187625347936,2.1537719768920565,0.0,1.759856759466642,0.0,6.0,3.41518609643676
4.301075268817205,13.45821680468191,14.800901296922454,13.269495007592822,13.199098703077546,2.1548082902984365,0.0,1.7635177758456853,0.0,6.0,3.6826198548814864
4.351087771942986,13.470827225662422,14.809982310666618,13.26941390855808,13.190017689333382,2.153459159559793,0.0,1.7676415087399597,0.0,6.0,3.1826198548814864
4.401100275068767,13.483427435652143,14.819055326213782,13.27209942538421,13.180944673786218,2.154214373519104,0.0,1.7717591281897715,0.0,6.0,3.5321179610969375
4.451112778194549,13.496017318586027,14.828120253972157,13.271854001502039,13.171879746027843,2.1527330428825735,0.0,1.7758706503505899,0.0,6.0,3.0321179610969375
4.501125281320331,13.508596308840493,14.837177004429815,13.273752572565636,13.162822995570185,2.1528822139916994,0.0,1.7799760912978648,0.0,6.0,3.5321179610969375
4.551137784446111,13.521164671495505,14.846225488155575,13.273863535672886,13.153774511844425,2.151666212740723,0.0,1.7840754670276626,0.0,6.0,3.0321179610969375
4.601150287571893,13.533168257815214,14.855265615799887,13.273362504331677,13.144734384200113,2.1499821330100684,0.0,1.7879617144213464,0.0,6.0,2.663934927123564
4.651162790697675,13.54571260724627,14.864297298095712,13.273875624326687,13.135702701904288,2.149068748291171,0.0,1.7920493124538055,0.0,6.0,3.063934927123564
4.701175293823456,13.557881890496349,14.873320445859408,13.273696660107758,13.126679554140592,2.1476258779699156,0.0,1.7959947241047791,0.0,6.0,2.917908241102397
4.751187796949237,13.570402549665301,14.882334969991604,13.273757077408625,13.117665030008396,2.1463634633132624,0.0,1.8000705009883102,0.0,6.0,3.104357494630902
4.801200300075019,13.58269750091396,14.891340781478084,13.274795746626632,13.108659218521916,2.145843800555244,0.0,1.8040598956871643,0.0,6.0,3.1827343334090226
4.8512128032008,13.595195474203193,14.900337791390665,13.274359672715116,13.099662208609335,2.1441982186009176,0.0,1.8081238305897818,0.0,6.0,2.6827343334090226
4.901225306326582,13.607681547842944,14.90932591088808,13.274978640119565,13.09067408911192,2.14335436318486,0.0,1.8121818084758459,0.0,6.0,2.9722431069305237
4.951237809452364,13.620157067876514,14.918305051216844,13.27637482592065,13.081694948783156,2.1430996161418325,0.0,1.8162338447361024,0.0,6.0,3.4722431069305237
5.0012503125781445,13.631668367721304,14.92727512371214,13.278809421583317,13.07272487628786,2.1436322460611423,0.0,1.819921955888657,0.0,6.0,3.7123809483992987
5.051262815703926,13.644120526041217,14.936236039798695,13.281859829481425,13.063763960201305,2.144629426756091,0.0,1.8239601076352387,0.0,6.0,3.9340258656867317
5.101275318829708,13.656571185404703,14.945187710991643,13.283816382024652,13.054812289008357,2.1447886260522226,0.0,1.827994935778603,0.0,6.0,3.4340258656867317
5.151287821955489,13.669011734957872,14.954130048897417,13.284465707606705,13.045869951102583,2.1439485515963588,0.0,1.8320238817810504,0.0,6.0,3.17180893075973
5.20130032508127,13.68090051220397,14.963062965214604,13.284796165155413,13.036937034785396,2.1428632206137377,0.0,1.835844350603369,0.0,6.0,2.8589736670820916
5.251312828207052,13.693317480016601,14.971986371734829,13.283502803530618,13.028013628265171,2.140539419126369,0.0,1.8398618719229858,0.0,6.0,2.578004391936111
5.3013253313328335,13.705399087912836,14.98090018034362,13.280819466157979,13.01909981965638,2.137156863796453,0.0,1.8437534219947087,0.0,6.0,2.078004391936111
5.351337834458615,13.717285618900004,14.989804303021279,13.27666113480741,13.010195696978721,2.1326524012933934,0.0,1.8475724672812155,0.0,6.0,1.578004391936111
5.401350337584397,13.72904681775673,14.998698651843753,13.27379074594442,13.001301348156247,2.129131296733987,0.0,1.851345259155411,0.0,6.0,1.8980043919361111
5.4513628407101775,13.741011462366663,15.007583138983506,13.2690459768299,12.992416861016494,2.1241844616207297,0.0,1.8551952451637934,0.0,6.0,1.3980043919361114
5.501375343835959,13.753345181233898,15.016457676710374,13.2653047083938,12.983542323289626,2.120004913821487,0.0,1.859184705228398,0.0,6.0,1.5958128036773633
5.551387846961741,13.76566254440718,15.025322177392443,13.262971665365855,12.974677822607557,2.116899676026803,0.0,1.863168398247384,0.0,6.0,1.9958128036773632
5.6014003500875225,13.777145937520137,15.034176553496907,13.261258042946379,12.965823446503093,2.1142668655315826,0.0,1.866839275349828,0.0,6.0,2.395812803677363
5.651412853213303,13.789434803319127,15.04302071759094,13.25970972190089,12.95697928240906,2.111760084787329,0.0,1.8708119204039666,0.0,6.0,2.4664205657501466
5.701425356339085,13.801708419703969,15.051854582342552,13.256641812982057,12.948145417657448,2.108096170986862,0.0,1.8747788405804948,0.0,6.0,1.9664205657501466
5.7514378594648665,13.813285196455984,15.060678060521454,13.255275439656113,12.939321939478546,2.1057293699868183,0.0,1.8784844857514877,0.0,6.0,2.366420565750147
5.801450362590648,13.825042212789574,15.06949106499992,13.254553868732385,12.93050893500008,2.103853420696719,0.0,1.8822571841372207,0.0,6.0,2.651992346596274
5.851462865716429,13.837276252190318,15.078293508753648,13.255021870621658,12.921706491246352,2.102882285667579,0.0,1.8862076446475589,0.0,6.0,3.0126608140784965
5.901475368842211,13.849498113303984,15.087085304862617,13.254045674770706,12.912914695137383,2.1008093326604333,0.0,1.8901524355143347,0.0,6.0,2.5126608140784965
5.951487871967992,13.861705237063351,15.095866366511945,13.25103115330697,12.904133633488055,2.097183757931021,0.0,1.894091570781248,0.0,6.0,2.0126608140784965
6.001500375093774,13.873373933703677,15.104636606992752,13.25019805052751,12.895363393007248,2.0952206480205016,0.0,1.897828702493074,0.0,6.0,2.2624724143283426
6.0515128782195555,13.88551675194687,15.113395939703011,13.249876842192254,12.886604060296989,2.093646571934058,0.0,1.9017428045467606,0.0,6.0,2.7624724143283426
6.101525381345336,13.897683982993527,15.122144278148397,13.248404354139149,12.877855721851603,2.0911945969728207,0.0,1.9056653568123243,0.0,6.0,2.2624724143283426
6.151537884471118,13.909836304594664,15.13088153594316,13.245594752619875,12.86911846405684,2.087724467969742,0.0,1.9095823082814165,0.0,6.0,2.0099316106943554
6.2015503875969,13.920986413260641,15.139607626810957,13.241435261372834,12.860392373189043,2.083228098449583,0.0,1.913124299120784,0.0,6.0,1.5099316106943554
6.251562890722681,13.932358121978694,15.148322464585716,13.237491306265703,12.851677535414284,2.0788989639246953,0.0,1.9167506759569124,0.0,6.0,1.2872871351688424
