Tiempo [s],h1_Real [cm],h2_Real [cm],h3_Real [cm],h4_Real [cm],h1_Ref [cm],h2_Ref [cm],v1_Bomba [V],v2_Bomba [V]
0.0,12.392303725284647,12.697229800859649,1.7963922692449314,1.3968162384475955,12.0,12.0,2.5,2.5
0.20002667022269635,12.375009712612767,12.683362714573116,1.7844064286199721,1.390076068866776,12.009426019256072,12.009426019256072,2.0,2.0
0.4000533404453927,12.355861899237409,12.661677045149068,1.7665948948901828,1.3827131222671931,12.018851945456325,12.018851945456325,1.5,1.5
0.600080010668089,12.324089543164202,12.632225247780514,1.7430475239344196,1.3707160465866568,12.028277685545861,12.028277685545861,1.0,1.0
0.8001066808907854,12.285532386707066,12.605340713477421,1.7216674384200241,1.3562931791671478,12.037703146471618,12.037703146471618,0.5,0.5
1.0001333511134818,12.252979639319804,12.567693966973641,1.6923185490084076,1.3442503714938225,12.04712823518329,12.04712823518329,1.0,0.0
1.200160021336178,12.21282848683865,12.530039805355578,1.6632219667906685,1.3295002356365797,12.056552858634248,12.056552858634248,0.5,0.0
1.4001866915588745,12.181744882404452,12.4942715553644,1.6358135702264074,1.3182885363951136,12.06597692378245,12.06597692378245,0.9596112379224959,0.0
1.6002133617815708,12.140344588587073,12.45813083024015,1.6083696139456265,1.3033445817569536,12.075400337591374,12.075400337591374,0.4596112379224959,0.0
1.800240032004267,12.106723731355206,12.421960977156981,1.581154534076951,1.291456018053212,12.084823007030918,12.084823007030918,0.9596112379224959,0.0
2.0002667022269636,12.079451196835656,12.391410295227931,1.5584429285622623,1.2820686137599535,12.094244839078339,12.094244839078339,1.459611237922496,0.5
2.20029337244966,12.06419882726358,12.353755689052775,1.5305260308942676,1.2772977692334206,12.103665740719155,12.103665740719155,1.959611237922496,0.0
2.400320042672356,12.054092655448736,12.317053301024357,1.5035402025486178,1.2745610174166762,12.11308561894807,12.11308561894807,2.4596112379224957,0.0
2.6003467128950524,12.047810771490013,12.28300493102009,1.478763397339658,1.2733510919003075,12.122504380769893,12.122504380769893,2.9596112379224957,0.0
2.800373383117749,12.047310618737125,12.254690148466088,1.4585098503645166,1.2743837438492442,12.13192193320045,12.13192193320045,2.799782483027835,0.5
3.0004000533404453,12.050332897289424,12.231312626138132,1.4421347128942814,1.2767906477005686,12.141338183267514,12.141338183267514,3.299782483027835,1.0
3.2004267235631416,12.062933342545966,12.208167185608124,1.4260258610049734,1.2828263321213231,12.150753038011707,12.150753038011707,3.799782483027835,1.5
3.400453393785838,12.082103703332125,12.198452377121743,1.4201860458867483,1.291332977615719,12.160166404487434,12.160166404487434,4.299782483027835,2.0
3.600480064008534,12.106413756600512,12.194372358455402,1.4186123976789127,1.301740775351315,12.169578189763783,12.169578189763783,4.799782483027835,2.5
3.800506734231231,12.123233352084432,12.196106920516298,1.421413732666153,1.3093002239630993,12.178988300925461,12.178988300925461,4.299782483027835,3.0
4.000533404453927,12.137556729022211,12.20035148570751,1.4260603658305637,1.3158805156956386,12.188396645073698,12.188396645073698,3.84108030114141,3.5
4.200560074676623,12.155096656474516,12.211867050280286,1.4361535609315,1.3236110645380006,12.197803129327168,12.197803129327168,4.341080301141409,4.0
4.40058674489932,12.184411080839423,12.220839043230844,1.4441897248210984,1.3356856013243663,12.207207660822908,12.207207660822908,4.841080301141409,3.5
4.600613415122016,12.22272882739863,12.233343502189168,1.4547773858075095,1.3510509106262294,12.216610146717231,12.216610146717231,5.341080301141409,4.0
4.800640085344712,12.271180838473926,12.25209638975314,1.4699437480740913,1.3701070857608444,12.22601049418665,12.22601049418665,5.7384900145448245,4.5
5.0006667555674085,12.307948140002502,12.27894589336784,1.491063785796418,1.3846564176540972,12.235408610428777,12.235408610428777,5.2384900145448245,5.0
5.200693425790105,12.341263022053804,12.313476239478979,1.5177978657514613,1.3977778841157933,12.244804402663267,12.244804402663267,5.325802220215841,5.5
5.400720096012802,12.384518523272503,12.345337512260047,1.5422460651178966,1.4144859715761302,12.254197778132706,12.254197778132706,5.825802220215841,5.2941763106448345
5.600746766235498,12.421182079407735,12.370248855955769,1.5611735246316107,1.4285940871809144,12.263588644103544,12.263588644103544,5.325802220215841,4.7941763106448345
5.800773436458194,12.446918332062877,12.401588001810914,1.5847948690772973,1.438490803570522,12.272976907867006,12.272976907867006,4.825802220215841,5.2941763106448345
6.000800106680891,12.466904420003205,12.43372847795234,1.6088244383708483,1.4461211321270744,12.282362476740003,12.282362476740003,4.325802220215841,5.7941763106448345
6.200826776903587,12.476756796372218,12.469814138045678,1.6356644504260731,1.4498474111948407,12.291745258066053,12.291745258066053,3.8258022202158406,6.0
6.400853447126283,12.481308058129667,12.500852190124746,1.6584842665761559,1.4514949625334015,12.301125159216193,12.301125159216193,3.3258022202158406,5.5
6.6008801173489795,12.478919700015323,12.526742960415426,1.6772478100069221,1.4504713939316543,12.310502087589892,12.310502087589892,2.9493778346547272,5.0
6.800906787571676,12.488505367046319,12.541500394748823,1.6874317702966686,1.4538874453621822,12.319875950615973,12.319875950615973,3.4493778346547272,4.5
7.000933457794372,12.488897437179167,12.553615760700158,1.6955381168593902,1.4538212383561369,12.329246655753513,12.329246655753513,2.9493778346547272,4.0
7.200960128017068,12.49697771625002,12.560070827600152,1.6992896638027084,1.4566150565743046,12.338614110492768,12.338614110492768,3.4493778346547272,3.5
7.400986798239765,12.512020675297261,12.560286108689052,1.6982606607634345,1.4620025273675776,12.347978222356083,12.347978222356083,3.9216787519081175,3.0
7.601013468462462,12.517736388561264,12.551828811220572,1.690636250508263,1.4638949042895668,12.357338898898806,12.357338898898806,3.4216787519081175,2.5
7.801040138685158,12.51760216412758,12.553359963731639,1.690645064932031,1.4636039613672367,12.366696047710194,12.366696047710194,2.9216787519081175,3.0
8.001066808907854,12.510568211213691,12.545352339287,1.683419819258294,1.4607433594657555,12.376049576414337,12.376049576414337,2.4216787519081175,2.5
8.20109347913055,12.492792700339828,12.531099712341645,1.6715245629259068,1.4539026550593375,12.385399392671056,12.385399392671056,1.9216787519081175,2.0
8.401120149353247,12.485231690217336,12.523164841041266,1.6645303916928986,1.4509400815369091,12.394745404176833,12.394745404176833,2.4216787519081175,2.2079764364743886
8.601146819575943,12.486535442698287,12.525180197126142,1.665146453555909,1.4513168998152837,12.4040875186657,12.4040875186657,2.9216787519081175,2.7079764364743886
8.80117348979864,12.494052449178925,12.515186833324243,1.6566329732200076,1.454031747224326,12.413425643910166,12.413425643910166,3.4216787519081175,2.2079764364743886
9.001200160021336,12.506416785538654,12.499408753374698,1.6437654242505169,1.4585874153071434,12.422759687722127,12.422759687722127,3.9216787519081175,1.7079764364743886
9.201226830244032,12.522083797869882,12.486335541838194,1.633011820320899,1.464403187625207,12.432089557953766,12.432089557953766,4.421678751908118,2.2079764364743886
9.401253500466728,12.54805783825685,12.484945869559006,1.6311644585351353,1.474079101634613,12.441415162498469,12.441415162498469,4.921678751908118,2.7079764364743886
9.601280170689424,12.572656737367332,12.487944355245395,1.632616982563513,1.4832089376407998,12.450736409291736,12.450736409291736,4.421678751908118,3.2079764364743886
9.80130684091212,12.586705744692493,12.496565556804041,1.6382967873468923,1.4883475285392314,12.460053206312086,12.460053206312086,3.921678751908118,3.7079764364743886
10.001333511134817,12.594547110117574,12.510750841916341,1.6481476583278816,1.4911201106477299,12.469365461581969,12.469365461581969,3.421678751908118,4.207976436474389
10.201360181357513,12.6068449731407,12.534639814391555,1.6652885068805068,1.4955084267791598,12.478673083168673,12.478673083168673,3.5265182784289086,4.707976436474389
10.40138685158021,12.60278578492601,12.552371222826144,1.6776384911131543,1.4937112531851653,12.487975979185226,12.487975979185226,3.0265182784289086,4.207976436474389
10.601413521802906,12.611556988047692,12.561827560317159,1.6836242810241557,1.4966946207247194,12.497274057791312,12.497274057791312,3.5265182784289086,3.7709994163812035
10.801440192025604,12.630101655798489,12.581104034451798,1.697009070198789,1.5032968874797787,12.506567227194173,12.506567227194173,4.026518278428909,4.270999416381203
11.0014668622483,12.636881636642157,12.589678838817361,1.7021624316823734,1.5054442842023803,12.515855395649517,12.515855395649517,3.5265182784289086,3.770999416381203
11.201493532470996,12.65054567145753,12.605684367064647,1.7129129030296246,1.51013764139306,12.525138471462416,12.525138471462416,3.8252717987525067,4.270999416381203
11.401520202693693,12.671157962033439,12.628318873191969,1.7286041151167315,1.5173760459015302,12.534416362988226,12.534416362988226,4.281685918810469,4.770999416381203
11.601546872916389,12.700419059316575,12.652548502454612,1.7453686315712638,1.5277787855077873,12.543688978633481,12.543688978633481,4.781685918810469,4.77893502745006
11.801573543139085,12.717507975572548,12.682008207457793,1.7659652583531953,1.533533223317925,12.552956226856796,12.552956226856796,4.281685918810469,5.27893502745006
12.001600213361781,12.72840230991599,12.715344403844282,1.7893604313164968,1.5368825109140742,12.562218016169778,12.562218016169778,3.781685918810469,5.77893502745006
12.201626883584478,12.731845165918696,12.744024362393766,1.8090699788566762,1.5373658912699608,12.571474255137925,12.571474255137925,3.281685918810469,5.27893502745006
12.401653553807174,12.730038149499704,12.768857003213581,1.8257439190070597,1.5358279220241315,12.580724852381529,12.580724852381529,2.781685918810469,4.77893502745006
12.60168022402987,12.732113224153695,12.801009791506877,1.847885823569549,1.53569073938446,12.58996971657658,12.58996971657658,3.281685918810469,5.27893502745006
12.801706894252566,12.74554357223389,12.825185638916217,1.8638304625313542,1.539749426415268,12.59920875645566,12.59920875645566,3.653183304988995,4.77893502745006
13.001733564475263,12.751204718927614,12.843294858925917,1.875064095147723,1.5408476050863198,12.608441880808858,12.608441880808858,3.153183304988995,4.27893502745006
13.201760234697959,12.745956926860474,12.851533297943863,1.8787427171983948,1.5378383345858457,12.617668998484659,12.617668998484659,2.653183304988995,3.7789350274500597
13.401786904920655,12.750621627145774,12.855057362227017,1.8788294437119875,1.538547433006119,12.626890018390844,12.626890018390844,3.153183304988995,3.2789350274500597
13.601813575143352,12.741998609707828,12.852018324349562,1.8739444317908978,1.5342899962664869,12.636104849495398,12.636104849495398,2.653183304988995,2.7789350274500597
13.801840245366048,12.727251636920162,12.844379652410508,1.865626332918626,1.5277769323932249,12.645313400827401,12.645313400827401,2.153183304988995,2.2789350274500597
14.001866915588744,12.72268379900383,12.844049697297518,1.8629375874724925,1.5251158481104115,12.654515581477927,12.654515581477927,2.653183304988995,2.7789350274500597
14.20189358581144,12.72775494097356,12.847472066176989,1.8631247425166928,1.5260789414651035,12.663711300600946,12.663711300600946,3.153183304988995,3.2789350274500597
14.401920256034137,12.73699907115672,12.859462013733802,1.869815717229532,1.5285936222967174,12.672900467414212,12.672900467414212,3.653183304988995,3.7789350274500597
14.601946926256833,12.75301866943342,12.872278762987143,1.8770817744152049,1.5336184574653267,12.682082991200174,12.682082991200174,4.153183304988994,4.058165388234782
14.80197359647953,12.779423061214993,12.88307948686312,1.8827448553010468,1.5424984472836316,12.691258781306853,12.691258781306853,4.327782166640963,3.6751476000317957
15.002000266702227,12.797950372080612,12.890011786550438,1.885405601464552,1.5483913023402678,12.700427747148751,12.700427747148751,3.8277821666409633,3.1751476000317957
15.202026936924923,12.80719863250175,12.88620027768942,1.8798749451354972,1.550798978595045,12.709589798207743,12.709589798207743,3.3277821666409633,2.6751476000317957
15.40205360714762,12.824060871650847,12.873836928861278,1.8678684019562437,1.5560798757640837,12.718744844033962,12.718744844033962,3.8035804628941516,2.1751476000317957
15.602080277370316,12.833124784969675,12.874236890082221,1.8656163243230857,1.5584493783835498,12.727892794246705,12.727892794246705,3.7648219525564786,2.6751476000317957
15.802106947593012,12.849117765536787,12.877798580246681,1.865767467747536,1.5634120714338655,12.737033558535312,12.737033558535312,3.5988809479828974,3.1751476000317957
16.00213361781571,12.857008181624984,12.87420705865112,1.860473153836995,1.5653365565056836,12.746167046660071,12.746167046660071,3.269979670647042,2.8121655147457685
16.202160288038403,12.852814807830985,12.883273575565934,1.86483308049477,1.5627353514160296,12.755293168453097,12.755293168453097,2.769979670647042,3.3121655147457685
16.4021869582611,12.858383692290245,12.88067651342682,1.8603162596554597,1.5638009042268386,12.764411833819226,12.764411833819226,3.269979670647042,2.8121655147457685
16.602213628483796,12.861716538139868,12.888627754118623,1.8638416508243052,1.56403059253917,12.773522952736911,12.773522952736911,3.0849530379954557,3.3121655147457685
16.802240298706494,12.85539582487546,12.899501862481069,1.8695792677383984,1.5606341511849018,12.782626435259104,12.782626435259104,2.5849530379954557,3.8121655147457685
17.002266968929188,12.853957386812143,12.918670149104132,1.8816004355386964,1.5590523637590963,12.79172219151414,12.79172219151414,3.0849530379954557,4.312165514745768
17.202293639151886,12.861997452307836,12.927503058996473,1.8857035310584758,1.5610029691918883,12.800810131706633,12.800810131706633,3.5849530379954557,3.812165514745768
17.402320309374584,12.865537147912532,12.931471025395007,1.886087065867591,1.5612588997571257,12.809890166118361,12.809890166118361,3.0849530379954557,3.312165514745768
17.60234697959728,12.882328263120588,12.93381145195503,1.8852246244491193,1.5664794916694877,12.818962205109147,12.818962205109147,3.5849530379954557,3.1101203348255635
17.802373649819977,12.88932569750526,12.943753854613972,1.8901316490622897,1.5680139052079594,12.828026159117748,12.828026159117748,3.2514724226265423,3.6101203348255635
18.00240032004267,12.900235731964663,12.959595844028673,1.8994860512209015,1.5709899862305727,12.837081938662735,12.837081938662735,3.4763608577540692,4.110120334825563
18.20242699026537,12.920413099034649,12.970643153799724,1.9051261876245467,1.5774070716356356,12.846129454343384,12.846129454343384,3.9763608577540692,3.8999933725818106
18.402453660488064,12.943316666237141,12.986888523041767,1.9146547486010288,1.584805182705154,12.855168616840547,12.855168616840547,4.476360857754069,4.399993372581811
18.602480330710762,12.975447433907325,13.012976661170985,1.9315671553698508,1.5955984738142295,12.86419933691755,12.86419933691755,4.653834969933366,4.899993372581811
18.802507000933456,13.002762826441682,13.030765464996508,1.942035246788479,1.6045176908966476,12.873221525421055,12.873221525421055,4.7463886150732435,4.5052187656094125
19.002533671156154,13.033844785877646,13.055246064310774,1.9574870833478901,1.6147845595207586,12.882235093281956,12.882235093281956,4.595891847835035,5.0052187656094125
19.20256034137885,13.053132685629185,13.076064846272613,1.970036279057068,1.6205660585943213,12.891239951516248,12.891239951516248,4.095891847835035,4.5052187656094125
19.402587011601547,13.067814417760525,13.102899328127789,1.9870670496136984,1.6245653576828336,12.90023601122591,12.90023601122591,3.595891847835035,5.0052187656094125
19.60261368182424,13.087231092945204,13.121172997159064,1.9974804614095576,1.6302890261597973,12.909223183599789,12.909223183599789,4.095891847835035,4.5052187656094125
19.80264035204694,13.09647700448684,13.13620606995122,2.005361903961835,1.6321646072962468,12.918201379914457,12.918201379914457,3.595891847835035,4.0052187656094125
20.002667022269634,13.09585998132441,13.14424675076021,2.007893571821194,1.630331011047583,12.92717051153511,12.92717051153511,3.095891847835035,3.5052187656094125
20.202693692492332,13.108691914398268,13.144059957004098,2.004164711814485,1.6335454019873068,12.93613048991643,12.93613048991643,3.595891847835035,3.0052187656094125
20.402720362715026,13.108188355160612,13.138841069362277,1.9966386841280634,1.631778455796083,12.945081226603458,12.945081226603458,3.095891847835035,2.5052187656094125
20.602747032937724,13.115113822380156,13.138797271572361,1.9930968699152736,1.6328198420994153,12.954022633232478,12.954022633232478,3.595891847835035,3.0052187656094125
20.80277370316042,13.119685310448125,13.131776541259695,1.9842797788897109,1.6329998617315797,12.962954621531876,12.962954621531876,3.2919709443172884,2.5052187656094125
21.002800373383117,13.110330511658855,13.118857968011643,1.9710518496166443,1.6280026161746415,12.971877103323024,12.971877103323024,2.7919709443172884,2.0052187656094125
21.20282704360581,13.096341792263507,13.111187236610622,1.961922089226068,1.6213236980759984,12.98078999052114,12.98078999052114,2.2919709443172884,2.5052187656094125
21.40285371382851,13.092998250607888,13.100668705169591,1.9507110263674596,1.6186860738757471,12.98969319513616,12.98969319513616,2.7919709443172884,2.0052187656094125
21.602880384051208,13.096836372167719,13.09513711050871,1.9433667764314648,1.618777705314155,12.998586629273618,12.998586629273618,3.2919709443172884,2.5052187656094125
21.802907054273902,13.094647262090225,13.0972123332158,1.9418558186088597,1.616629821476407,13.007470205135492,13.007470205135492,2.7919709443172884,3.0052187656094125
22.0029337244966,13.08920667323233,13.105330330515516,1.9449639063858946,1.6132728518273605,13.016343835021093,13.016343835021093,2.7831984725680265,3.5052187656094125
22.202960394719295,13.083263591967839,13.119813656132239,1.9529123426677608,1.6097255633978254,13.025207431327916,13.025207431327916,2.560732548263124,4.0052187656094125
22.402987064941993,13.083178381194909,13.13591195612851,1.962059538789454,1.6083609672804935,13.034060906552511,13.034060906552511,3.060732548263124,4.229591043648195
22.603013735164687,13.07824199439562,13.145016472663988,1.965857948850652,1.6051689801277322,13.042904173291348,13.042904173291348,2.597049426438704,3.7295910436481954
22.803040405387385,13.079620845942994,13.148003739669448,1.965003352251108,1.6043512019602924,13.051737144241674,13.051737144241674,3.097049426438704,3.2295910436481954
23.00306707561008,13.073756209080198,13.143624230619709,1.958574328139039,1.60083896287025,13.060559732202378,13.060559732202378,2.597049426438704,2.7295910436481954
23.203093745832778,13.07372440048406,13.148264541750688,1.9590530258797962,1.5995345392255427,13.069371850074857,13.069371850074857,3.097049426438704,3.2295910436481954
23.403120416055472,13.080370105787372,13.159098887084086,1.9642413128346334,1.6007298329899111,13.078173410863865,13.078173410863865,3.597049426438704,3.7295910436481954
23.60314708627817,13.100472616292075,13.165153873846192,1.9657576895570057,1.6069537998934502,13.086964327678382,13.086964327678382,4.097049426438704,3.3140710863137492
23.803173756500865,13.128098290993405,13.174007912523173,1.9693623702913918,1.6159715989000683,13.095744513732468,13.095744513732468,4.597049426438704,3.8140710863137492
24.003200426723563,13.147472587234413,13.189960608028517,1.978310614619964,1.6218573496529687,13.104513882346119,13.104513882346119,4.097049426438704,4.314071086313749
24.203227096946257,13.173155652764883,13.212699558413016,1.99233639898506,1.6300570310482283,13.113272346946118,13.113272346946118,4.597049426438704,4.814071086313749
