Tiempo [s],h1_Real [cm],h2_Real [cm],h3_Real [cm],h4_Real [cm],h1_Ref [cm],h2_Ref [cm],v1_Bomba [V],v2_Bomba [V]
0.0,12.39122256144143,12.703034705232813,1.80080250820353,1.396404592167137,12.0,16.0,2.5,3.5
0.20002667022269635,12.372451986679177,12.716432263168336,1.809502433863853,1.38906687581167,12.0,16.0,2.0,4.0
0.4000533404453927,12.348753381821094,12.735297987266998,1.822348001694022,1.3798773270829359,12.0,16.0,1.5,4.5
0.600080010668089,12.316833412312494,12.760318917897507,1.839848965838325,1.367596237728574,12.0,16.0,1.0,5.0
0.8001066808907854,12.284399907251977,12.79076106123317,1.8614289429152737,1.355106852776398,12.0,16.0,0.9035012670496696,5.5
1.0001333511134818,12.246725023906452,12.825226251304617,1.886008331694544,1.340629997373632,12.0,16.0,0.5564449807081022,6.0
1.200160021336178,12.199146465447033,12.862007321587502,1.9122889400005594,1.3224213949870038,12.0,16.0,0.05644498070810222,6.0
1.4001866915588745,12.153738007655829,12.898835739604273,1.9385470319444584,1.3050126761772973,12.0,16.0,0.0,6.0
1.6002133617815708,12.108227675896568,12.932312742036688,1.962200890732739,1.2875557331162442,12.0,16.0,0.0,6.0
1.800240032004267,12.063951268665525,12.966485269349874,1.9863408777654814,1.2705551104488775,12.0,16.0,0.0,6.0
2.0002667022269636,12.019645683512039,13.002725842077918,2.012007566603733,1.2535344892308857,12.0,16.0,0.0,6.0
2.20029337244966,11.975103882159114,13.036825095631334,2.035996440048127,1.236417875441849,12.0,16.0,0.0,6.0
2.400320042672356,11.936887612099436,13.072678970195081,2.061272631715202,1.2216633004443476,12.0,16.0,0.5,6.0
2.6003467128950524,11.891692830464413,13.106195187800395,2.08472223428621,1.2042842001431389,12.0,16.0,0.0,6.0
2.800373383117749,11.847972633959623,13.138987294660236,2.1075887083815923,1.1874591627584627,12.0,16.0,0.0,6.0
3.0004000533404453,11.803424814148022,13.172187443797528,2.1307364691775352,1.1703259573609814,12.0,16.0,0.047823483528542814,6.0
3.2004267235631416,11.76649416707937,13.207272188602877,2.15528042627902,1.1560449511162036,12.0,16.0,0.5478234835285427,6.0
3.400453393785838,11.735189113327806,13.242183879830439,2.179637319963903,1.1438585798527934,12.0,16.0,0.8131077521268307,6.0
3.600480064008534,11.712582469588138,13.275687050036783,2.202855933621132,1.1349110126252928,12.0,16.0,1.3131077521268306,6.0
3.800506734231231,11.68903626862971,13.310299579392254,2.226848898160124,1.1255834035441548,12.0,16.0,1.21666473749629,6.0
4.000533404453927,11.658833777504134,13.344764302722972,2.2506662491875367,1.113737871492022,12.0,16.0,0.71666473749629,6.0
4.200560074676623,11.637400082071672,13.37659274497934,2.272417077729288,1.1051611145938136,12.0,16.0,1.21666473749629,6.0
4.40058674489932,11.614869217769387,13.410772381304861,2.2958953488750207,1.0961486070433208,12.0,16.0,1.157605164457268,6.0
4.600613415122016,11.598439709932936,13.44115000787203,2.3164119844597737,1.0893982478969544,12.0,16.0,1.657605164457268,6.0
4.800640085344712,11.584170415283307,13.475083463714364,2.3395660537033938,1.08342663975724,12.0,16.0,1.8452566020175296,6.0
5.0006667555674085,11.56240655860547,13.507706497143204,2.3616528083911494,1.0746160425262876,12.0,16.0,1.3452566020175296,6.0
5.200693425790105,11.542603110836694,13.538921290176667,2.3826105296704374,1.0665201947502,12.0,16.0,1.4890223818727013,6.0
5.400720096012802,11.512681412992356,13.572448419844795,2.4052824541531517,1.0546161133722403,12.0,16.0,0.9890223818727013,6.0
5.600746766235498,11.48504279810068,13.605356372057544,2.4274416754788546,1.0435597737739197,12.0,16.0,0.9520439347877077,6.0
5.800773436458194,11.47036563309487,13.637278501603147,2.448796523901187,1.0373454928161958,12.0,16.0,1.4520439347877077,6.0
6.000800106680891,11.462757896315,13.670402894995828,2.47099296709956,1.033747761208113,12.0,16.0,1.9520439347877077,6.0
6.200826776903587,11.464865291496274,13.70344275174628,2.4930313760223557,1.033744469952682,12.0,16.0,2.4520439347877074,6.0
6.400853447126283,11.456732696494795,13.736397136835754,2.5149135684924357,1.0298539869246646,12.0,16.0,1.9520439347877074,6.0
6.6008801173489795,11.451312350924907,13.769255032327262,2.5366413257518645,1.026940693024415,12.0,16.0,2.082227106381818,6.0
6.800906787571676,11.452313722424224,13.801216436543198,2.5575982923601193,1.0263898220206245,12.0,16.0,2.582227106381818,6.0
7.000933457794372,11.463362160903884,13.83393344346438,2.579026698882098,1.029548122153642,12.0,16.0,3.082227106381818,6.0
7.200960128017068,11.465834967450972,13.866103465081961,2.5999337430036378,1.0294316347660324,12.0,16.0,2.582227106381818,6.0
7.400986798239765,11.471389849424497,13.89764073222454,2.6202639006149417,1.0304186697342872,12.0,16.0,2.7726756512495214,6.0
7.601013468462462,11.481254862746619,13.929306485899053,2.640591388299038,1.032964961127468,12.0,16.0,2.998698589463655,6.0
7.801040138685158,11.48304473613477,13.96178921871579,2.661444747030266,1.03242915564637,12.0,16.0,2.498698589463655,6.0
8.001066808907854,11.493216487850027,13.991325670121547,2.6799616821581616,1.034985309384377,12.0,16.0,2.998698589463655,6.0
8.20109347913055,11.496752943109172,14.023695456324115,2.7005453772887873,1.0350014766676083,12.0,16.0,2.498698589463655,6.0
8.401120149353247,11.495959893664017,14.055765385565268,2.7208175509535426,1.0333497765715314,12.0,16.0,2.4293545295983106,6.0
8.601146819575943,11.506743873807158,14.083862706575054,2.737980793909115,1.0359940029505215,12.0,16.0,2.9293545295983106,6.0
8.80117348979864,11.524928222132232,14.115673065875193,2.7578716121970537,1.0413531749242984,12.0,16.0,3.2026404793253476,6.0
9.001200160021336,11.54212791770271,14.147849784626363,2.77792738500432,1.0462746510699807,12.0,16.0,3.4174344108143977,6.0
9.201226830244032,11.564227198703845,14.178061547300953,2.7963720536220413,1.0529644064442059,12.0,16.0,3.680432560347296,6.0
9.401253500466728,11.579588551870899,14.207792837360907,2.814344593208165,1.0570632938930615,12.0,16.0,3.180432560347296,6.0
9.601280170689424,11.603352203468202,14.239453129568258,2.8336779400179823,1.0642471400172722,12.0,16.0,3.680432560347296,6.0
9.80130684091212,11.616119715556016,14.268604604554254,2.8509962982980452,1.0672452231703695,12.0,16.0,3.180432560347296,6.0
10.001333511134817,11.631370562197944,14.300149077527513,2.8700452388452597,1.0711202648720037,12.0,16.0,2.9518598138201124,6.0
10.201360181357513,11.650770589231353,14.329046143495995,2.8869790045918444,1.0764926669777013,12.0,16.0,3.4518598138201124,6.0
10.40138685158021,11.677017084297917,14.361057218472972,2.9061759313331756,1.084365522362833,12.0,16.0,3.9518598138201124,6.0
10.601413521802906,11.700308188602579,14.391583442284874,2.9241267177932544,1.0910595553604847,12.0,16.0,3.590992921030752,6.0
10.801440192025604,11.715517652622289,14.423369223711994,2.942936184239875,1.094662512584032,12.0,16.0,3.090992921030752,6.0
11.0014668622483,11.733034596615466,14.455308503447425,2.9617667900271947,1.0990744827271852,12.0,16.0,3.4382397482926605,6.0
11.201493532470996,11.760901509038252,14.487229079850783,2.9804748989878522,1.1073021041536288,12.0,16.0,3.9382397482926605,6.0
11.401520202693693,11.798539347271928,14.518339547591886,2.9984390359946924,1.1191142065754915,12.0,16.0,4.438239748292661,6.0
11.601546872916389,11.82580488500621,14.550277948783592,3.016909686608364,1.1269588525379322,12.0,16.0,3.938239748292661,6.0
11.801573543139085,11.859871737545362,14.58185345346984,3.034984305971102,1.1372797481298105,12.0,16.0,4.438239748292661,6.0
12.001600213361781,11.886109986407583,14.610924328725966,3.0510386334103545,1.1445952831490067,12.0,16.0,3.938239748292661,6.0
12.201626883584478,11.90591646819073,14.642849031043804,3.0691711906281673,1.1494409668899923,12.0,16.0,3.438239748292661,6.0
12.401653553807174,11.91942949987061,14.672831246620941,3.0857407249904294,1.151878429320666,12.0,16.0,3.170157847740791,6.0
12.60168022402987,11.942295255516257,14.704469773005039,3.1034875171635115,1.1577735853516193,12.0,16.0,3.670157847740791,6.0
12.801706894252566,11.961392351412952,14.733116459650535,3.1188676162887097,1.1622036080750557,12.0,16.0,3.393077823551736,6.0
13.001733564475263,11.990039735646615,14.763596766833636,3.1355545569887275,1.1701605008329177,12.0,16.0,3.893077823551736,6.0
13.201760234697959,12.005788733129778,14.795388267849802,3.153149863212176,1.1732265233565649,12.0,16.0,3.393077823551736,6.0
13.401786904920655,12.029177820781213,14.827147178753677,3.1706342254757613,1.1791071794670074,12.0,16.0,3.420203161487741,6.0
13.601813575143352,12.043360000065489,14.858871055862993,3.1880086467566957,1.181486821179909,12.0,16.0,2.920203161487741,6.0
13.801840245366048,12.044657745465058,14.890529663308238,3.205274115540409,1.1790037315419108,12.0,16.0,2.420203161487741,6.0
14.001866915588744,12.04868411454372,14.921872061196755,3.2222512937346637,1.1775212289146675,12.0,16.0,2.659809667449408,6.0
14.20189358581144,12.056211947725883,14.953381578633536,3.2393028898101868,1.177324960116275,12.0,16.0,2.771456095677269,6.0
14.401920256034137,12.073854399948601,14.984839102930522,3.256248405134742,1.180884921109291,12.0,16.0,3.271456095677269,6.0
14.601946926256833,12.083014348738942,15.0140926908128,3.2714510299401707,1.1812285047064757,12.0,16.0,2.771456095677269,6.0
14.80197359647953,12.085016615286703,15.04543346136545,3.2881972964862136,1.1788648661051708,12.0,16.0,2.271456095677269,6.0
15.002000266702227,12.079413738415544,15.076682960351178,3.3048401568744197,1.17363594816462,12.0,16.0,2.0454454415671735,6.0
15.202026936924923,12.06968258056311,15.107825316987993,3.321380507923604,1.16685494117811,12.0,16.0,1.6326138123546292,6.0
15.40205360714762,12.066660027285671,15.136917639496586,3.3363391665634445,1.1625858637670943,12.0,16.0,1.7084557859709166,6.0
15.602080277370316,12.067858300238866,15.16538792598848,3.3507973226684844,1.1598900452726804,12.0,16.0,2.2084557859709166,6.0
15.802106947593012,12.063647416851618,15.196257637453394,3.367055928523621,1.1551558592672746,12.0,16.0,1.7084557859709166,6.0
16.00213361781571,12.044088167452479,15.226491656460443,3.382821920688503,1.1446707956735156,12.0,16.0,1.2084557859709166,6.0
16.202160288038403,12.039755549833329,15.255841864456897,3.3979090150907845,1.1399020741073276,12.0,16.0,1.7084557859709166,6.0
16.4021869582611,12.04302155324932,15.284167563886196,3.4121892784036536,1.137973363089455,12.0,16.0,2.093618110313659,6.0
16.602213628483796,12.050030358891902,15.314651640812029,3.428074486496925,1.1374291848574773,12.0,16.0,2.593618110313659,6.0
16.802240298706494,12.058141651364128,15.343824392745566,3.442915177565986,1.137275244276477,12.0,16.0,2.6579164697119877,6.0
17.002266968929188,12.060331088984167,15.374176363301018,3.4586147555763085,1.134881628549881,12.0,16.0,2.1579164697119877,6.0
17.202293639151886,12.070485523505022,15.404460601297675,3.4742198018906425,1.1354536537803235,12.0,16.0,2.6579164697119877,6.0
17.402320309374584,12.08602857797653,15.434233501312054,3.489379709934628,1.1380156207573542,12.0,16.0,2.8439617053679314,6.0
17.60234697959728,12.095583300398006,15.463224306434503,3.503891468120361,1.1383031836652058,12.0,16.0,2.7082077505530715,6.0
17.802373649819977,12.101902848569408,15.493349557456787,3.5192250756186825,1.1373560350346459,12.0,16.0,2.5836512693562366,6.0
18.00240032004267,12.109728239392057,15.522736597287766,3.5339554816190377,1.1369533809480172,12.0,16.0,2.590753003428325,6.0
18.20242699026537,12.111079784359783,15.552725721769301,3.5491098120731746,1.13410714350964,12.0,16.0,2.090753003428325,6.0
18.402453660488064,12.108782250214235,15.582628734756693,3.564174061303669,1.1298843455074812,12.0,16.0,2.162479186499447,6.0
18.602480330710762,12.11196045217087,15.611551092168837,3.578466691783936,1.1277064740829368,12.0,16.0,2.370046920864709,6.0
18.802507000933456,12.106738772953676,15.639728345816648,3.5921732191149953,1.122374164341554,12.0,16.0,1.8700469208647088,6.0
19.002533671156154,12.095328811188752,15.669357869805074,3.6069825245931995,1.1147278500430815,12.0,16.0,1.3700469208647088,6.0
19.20256034137885,12.090345768530343,15.698642595332771,3.621523706336483,1.1094972468276845,12.0,16.0,1.7551298704988074,6.0
19.402587011601547,12.084779332191166,15.727356974894619,3.6356202980035155,1.1040497843717734,12.0,16.0,1.824965426352526,6.0
19.60261368182424,12.08451098060107,15.756690785786379,3.650173920049986,1.1005873598013565,12.0,16.0,2.324965426352526,6.0
19.80264035204694,12.084474250127553,15.783301946999085,3.662635696032859,1.0972075591516612,12.0,16.0,1.9479405329829,6.0
20.002667022269634,12.077036930625955,15.81244140632544,3.6770145911152223,1.09105440171628,12.0,16.0,1.4479405329829,6.0
20.202693692492332,12.07394566076973,15.84068752543254,3.69070471472463,1.0865341012970762,12.0,16.0,1.9243001059921598,5.682593378489283
20.402720362715026,12.06157563684868,15.869647386435327,3.7049363376436597,1.0785416828088326,12.0,16.0,1.4243001059921598,6.0
20.602747032937724,12.046451272679079,15.898485414289576,3.7190851570838155,1.069533257093226,12.0,16.0,0.9243001059921598,6.0
20.80277370316042,12.037696629349604,15.927206969000686,3.7331518111064086,1.0629277064668856,12.0,16.0,1.4243001059921598,6.0
21.002800373383117,12.035433231706675,15.952723882991878,3.7447743911882507,1.0587628730128233,12.0,16.0,1.9243001059921598,5.5
21.20282704360581,12.035725364298914,15.980244516637358,3.757913193111796,1.055556471810718,12.0,16.0,1.9996612899494584,6.0
21.40285371382851,12.037470801151818,16.00434415499779,3.768432964628186,1.0528931302379958,12.0,16.0,2.4996612899494584,5.5
21.602880384051208,12.053360263373545,16.02021950260628,3.7726740047029956,1.0555285785530668,12.0,16.0,2.9996612899494584,5.0
21.802907054273902,12.060630186362497,16.03042668794985,3.7725980417570675,1.0549334146364362,12.0,16.0,2.4996612899494584,4.5
22.0029337244966,12.075922769240265,16.047183970846383,3.777513532040024,1.057348176812837,12.0,16.0,2.79204811161477,5.0
22.202960394719295,12.077280345008553,16.056195840974794,3.7765368843174394,1.0545446580209834,12.0,16.0,2.29204811161477,4.675097908681033
22.402987064941993,12.075892580826013,16.06200072578116,3.7731598667831308,1.050741728292327,12.0,16.0,2.1777412680781625,4.175097908681033
22.603013735164687,12.070775114106564,16.061065853788843,3.7647119447917623,1.045583549236927,12.0,16.0,1.6777412680781625,3.6750979086810327
22.803040405387385,12.078016147072486,16.068071515403158,3.762366288120087,1.0450945483807383,12.0,16.0,2.1777412680781625,4.175097908681033
23.00306707561008,12.075488376007932,16.072572074093905,3.7581531945482016,1.0409700555324097,12.0,16.0,1.6777412680781625,4.166019032963342
23.203093745832778,12.06667905120709,16.07424869234908,3.7518547469309422,1.034535384742702,12.0,16.0,1.7382279169614159,3.6660190329633418
23.403120416055472,12.054217591477341,16.080631654671706,3.749215965451067,1.0267830194685772,12.0,16.0,1.2382279169614159,4.166019032963342
23.60314708627817,12.035442022810374,16.079968022581262,3.7412961431253136,1.016724785652418,12.0,16.0,0.9614738483329953,3.6660190329633418
23.803173756500865,12.027126385837333,16.073603662819817,3.729133986793137,1.0106574909069461,12.0,16.0,1.4614738483329954,3.1660190329633418
24.003200426723563,12.00523966902308,16.061867297570405,3.712998944359009,0.9995809212394257,12.0,16.0,0.9614738483329955,2.6660190329633418
24.203227096946257,11.996252126166667,16.04606780207512,3.693901962794354,0.9934291986755742,12.0,16.0,1.4614738483329957,2.1660190329633418
24.403253767168955,11.995232911441573,16.020494094972328,3.667487781082926,0.9903459328794304,12.0,16.0,1.9614738483329957,1.6660190329633418
24.60328043739165,11.99848347506317,15.987507313102812,3.6355662151741006,0.988947122464397,12.0,16.0,2.233077849430593,1.1660190329633418
24.803307107614348,11.993426671525748,15.961455215766,3.6090734690075226,0.9845195829366401,12.0,16.0,1.7330778494305932,1.6660190329633418
25.003333777837042,11.9929927420202,15.94168519215639,3.5874959719492785,0.9819035382814302,12.0,16.0,2.233077849430593,2.106737918340816
25.20336044805974,12.00124406898787,15.92402806617318,3.5676287907680084,0.9826029047336533,12.0,16.0,2.733077849430593,2.606737918340816
25.403387118282435,12.017992688820016,15.911392695890324,3.551657397971696,0.9865254985353435,12.0,16.0,3.0313884492182437,2.9460100128480287
25.603413788505133,12.020677675327038,15.910191422442535,3.5444484525868485,0.9852016077441724,12.0,16.0,2.5313884492182437,3.4460100128480287
25.80344045872783,12.02827346053415,15.908021244551461,3.5365461848868582,0.9857455068707921,12.0,16.0,2.5851617189946228,3.9460100128480287
26.003467128950525,12.030444816112281,15.910618971587958,3.5323159497007524,0.9842784323697885,12.0,16.0,2.0851617189946228,3.98945595999097
26.203493799173224,12.038016551786336,15.91921290951634,3.5326769367794864,0.9848502919208109,12.0,16.0,2.5851617189946228,4.48945595999097
26.403520469395918,12.05742630835673,15.933135850382042,3.5370839387816453,0.9898502834540055,12.0,16.0,3.0851617189946228,4.98945595999097
26.603547139618616,12.064985588071961,15.942403174028762,3.5379288505003768,0.9903948475292685,12.0,16.0,2.5851617189946228,4.48945595999097
26.80357380984131,12.062868144202254,15.952767562183624,3.5396244731982045,0.9873211418646407,12.0,16.0,2.0851617189946228,4.5983218290911285
27.00360048006401,12.06268596786202,15.967246955618446,3.5444708558510603,0.9849859087859443,12.0,16.0,2.0310317987304605,5.0983218290911285
27.203627150286703,12.06944874639536,15.97972272834022,3.5477928151598084,0.9852580739344569,12.0,16.0,2.5310317987304605,4.5983218290911285
27.4036538205094,12.063771400582635,15.984279498346371,3.5451046437626745,0.980881497823479,12.0,16.0,2.0310317987304605,4.0983218290911285
27.603680490732096,12.052609871625036,15.97841170425146,3.5345451934515126,0.9744958709484985,12.0,16.0,1.5310317987304605,3.5983218290911285
27.803707160954794,12.033218105235717,15.96867853983756,3.5211486503099017,0.9650953444971334,12.0,16.0,1.0310317987304605,3.198077836557453
28.003733831177488,12.018052063760337,15.9560390220488,3.505659783254195,0.9573596979254174,12.0,16.0,1.2887279498757294,2.698077836557453
28.203760501400186,11.996779360479362,15.950418734744725,3.495636005713984,0.947411930143245,12.0,16.0,0.7887279498757294,3.198077836557453
28.40378717162288,11.98119040623087,15.950430612563679,3.4900008112985486,0.9396624736745929,12.0,16.0,1.2887279498757294,3.698077836557453
28.60381384184558,11.9720599960236,15.946528993369565,3.4814639442820576,0.9343888813386125,12.0,16.0,1.7887279498757294,3.198077836557453
28.803840512068273,11.976522983949566,15.946121031269124,3.4756456539601133,0.9342482207019028,12.0,16.0,2.2887279498757294,3.698077836557453
29.00386718229097,11.989339761387058,15.951979838805764,3.474617854146709,0.9372467960884209,12.0,16.0,2.7887279498757294,4.198077836557453
29.203893852513666,11.990955069991761,15.961665945825711,3.4765096179676593,0.9360453098608181,12.0,16.0,2.2887279498757294,4.698077836557453
29.403920522736364,12.002051865711257,15.980822212169585,3.485601778966475,0.9383900218763626,12.0,16.0,2.7887279498757294,5.198077836557453
29.60394719295906,12.004869197491065,15.992214352351507,3.488759676113549,0.9376181879277121,12.0,16.0,2.2887279498757294,4.698077836557453
29.803973863181756,11.996410483040073,15.997524371977194,3.487308905916952,0.9326359698075148,12.0,16.0,1.8361976344395285,4.198077836557453
30.004000533404454,11.991314999956948,15.995794710120238,3.4805489334688393,0.928951383017933,12.0,16.0,1.8487768761771388,3.698077836557453
30.20402720362715,11.977470418823916,15.987744995510116,3.4690543931050692,0.9220384006616971,12.0,16.0,1.3487768761771388,3.198077836557453
30.404053873849847,11.967871582953787,15.975352826700837,3.45435302541758,0.9167829079986562,12.0,16.0,1.8487768761771388,2.698077836557453
30.60408054407254,11.972208149896806,15.967264809999254,3.4430106802140537,0.9168010209857692,12.0,16.0,2.348776876177139,3.198077836557453
